##TITLE=No Description
##DATA TYPE=INFRARED SPECTRUM
##XUNITS=1/CM
##YUNITS=%T
399,264912  	60,840887 
401,193728  	62,774824 
403,122544  	66,934356 
405,051360  	71,061705 
406,980176  	71,028228 
408,908992  	66,492718 
410,837808  	63,625489 
412,766624  	61,234692 
414,695440  	58,180691 
416,624256  	56,580804 
418,553072  	55,110529 
420,481888  	61,814067 
422,410704  	65,258332 
424,339520  	65,680793 
426,268336  	68,817058 
428,197152  	70,443575 
430,125968  	69,962935 
432,054784  	69,462299 
433,983600  	70,279140 
435,912416  	71,454729 
437,841232  	71,671397 
439,770048  	71,403579 
441,698864  	70,243952 
443,627680  	68,805095 
445,556496  	69,239256 
447,485312  	69,308089 
449,414128  	71,599510 
451,342944  	72,057748 
453,271760  	70,222323 
455,200576  	67,878823 
457,129392  	65,278815 
459,058208  	65,235059 
460,987024  	64,693667 
462,915840  	63,663391 
464,844656  	62,233992 
466,773472  	60,487019 
468,702288  	62,124746 
470,631104  	65,138205 
472,559920  	68,001002 
474,488736  	72,119638 
476,417552  	73,751578 
478,346368  	73,999684 
480,275184  	73,870405 
482,204000  	72,817438 
484,132816  	72,403572 
486,061632  	73,147679 
487,990448  	74,364338 
489,919264  	73,595830 
491,848080  	71,777599 
493,776896  	71,919110 
495,705712  	73,093117 
497,634528  	73,483094 
499,563344  	72,904153 
501,492160  	71,261802 
503,420976  	70,947637 
505,349792  	71,111012 
507,278608  	71,040248 
509,207424  	70,738306 
511,136240  	70,610192 
513,065056  	71,091463 
514,993872  	70,070340 
516,922688  	68,245245 
518,851504  	68,077377 
520,780320  	69,474231 
522,709136  	69,708207 
524,637952  	68,303452 
526,566768  	67,690659 
528,495584  	68,205064 
530,424400  	67,669923 
532,353216  	66,360301 
534,282032  	64,981909 
536,210848  	64,119176 
538,139664  	63,409786 
540,068480  	62,077645 
541,997296  	60,760649 
543,926112  	59,701718 
545,854928  	58,574525 
547,783744  	58,479860 
549,712560  	59,042408 
551,641376  	59,674005 
553,570192  	61,244321 
555,499008  	62,885219 
557,427824  	64,573386 
559,356640  	67,175898 
561,285456  	69,845111 
563,214272  	71,553991 
565,143088  	73,406640 
567,071904  	74,800859 
569,000720  	75,324918 
570,929536  	75,307303 
572,858352  	75,903310 
574,787168  	75,672770 
576,715984  	75,145190 
578,644800  	75,390877 
580,573616  	74,857155 
582,502432  	74,583128 
584,431248  	74,675407 
586,360064  	75,092320 
588,288880  	75,160944 
590,217696  	74,971865 
592,146512  	74,812229 
594,075328  	75,114917 
596,004144  	75,044310 
597,932960  	74,749899 
599,861776  	74,293505 
601,790592  	74,565241 
603,719408  	75,054277 
605,648224  	74,665403 
607,577040  	74,154310 
609,505856  	74,035716 
611,434672  	74,128677 
613,363488  	73,936753 
615,292304  	73,072292 
617,221120  	72,280467 
619,149936  	71,704936 
621,078752  	71,118826 
623,007568  	70,670950 
624,936384  	69,537260 
626,865200  	68,127503 
628,794016  	66,383387 
630,722832  	63,597898 
632,651648  	59,326273 
634,580464  	56,594058 
636,509280  	60,803869 
638,438096  	66,956770 
640,366912  	69,226779 
642,295728  	71,404416 
644,224544  	73,961295 
646,153360  	74,327983 
648,082176  	73,546457 
650,010992  	72,893044 
651,939808  	72,106076 
653,868624  	71,350035 
655,797440  	70,583648 
657,726256  	69,741082 
659,655072  	68,689389 
661,583888  	67,593997 
663,512704  	66,411651 
665,441520  	65,051288 
667,370336  	63,229029 
669,299152  	60,112898 
671,227968  	58,814023 
673,156784  	56,847636 
675,085600  	54,750640 
677,014416  	53,163685 
678,943232  	53,147912 
680,872048  	56,375131 
682,800864  	62,446472 
684,729680  	68,307799 
686,658496  	71,933288 
688,587312  	73,570032 
690,516128  	73,853801 
692,444944  	73,415469 
694,373760  	72,389966 
696,302576  	71,624940 
698,231392  	71,323680 
700,160208  	71,193301 
702,089024  	71,075234 
704,017840  	70,974484 
705,946656  	71,012650 
707,875472  	70,757805 
709,804288  	70,577463 
711,733104  	70,005045 
713,661920  	68,915894 
715,590736  	67,697455 
717,519552  	66,155880 
719,448368  	64,211587 
721,377184  	62,332237 
723,306000  	60,149062 
725,234816  	57,643346 
727,163632  	54,893529 
729,092448  	51,646196 
731,021264  	48,670914 
732,950080  	46,549143 
734,878896  	46,280022 
736,807712  	49,058510 
738,736528  	53,910883 
740,665344  	59,073985 
742,594160  	64,668958 
744,522976  	69,915821 
746,451792  	73,422365 
748,380608  	74,927290 
750,309424  	75,084637 
752,238240  	74,678192 
754,167056  	74,112198 
756,095872  	73,547239 
758,024688  	73,535840 
759,953504  	73,614258 
761,882320  	74,016976 
763,811136  	74,204279 
765,739952  	74,178826 
767,668768  	74,249806 
769,597584  	74,345706 
771,526400  	74,191222 
773,455216  	74,106311 
775,384032  	73,638349 
777,312848  	73,128625 
779,241664  	72,588083 
781,170480  	71,839974 
783,099296  	70,896010 
785,028112  	69,690205 
786,956928  	68,764314 
788,885744  	67,748521 
790,814560  	65,937545 
792,743376  	63,699107 
794,672192  	61,967787 
796,601008  	62,818081 
798,529824  	66,725099 
800,458640  	70,011309 
802,387456  	69,853618 
804,316272  	67,841979 
806,245088  	66,517815 
808,173904  	68,774974 
810,102720  	73,570165 
812,031536  	76,977167 
813,960352  	78,232142 
815,889168  	78,610961 
817,817984  	78,400974 
819,746800  	77,966243 
821,675616  	77,390647 
823,604432  	76,944706 
825,533248  	76,794530 
827,462064  	76,524241 
829,390880  	75,907622 
831,319696  	75,607132 
833,248512  	75,409659 
835,177328  	75,012231 
837,106144  	74,394830 
839,034960  	73,967281 
840,963776  	73,476580 
842,892592  	73,099618 
844,821408  	72,742880 
846,750224  	72,261557 
848,679040  	71,841978 
850,607856  	71,484036 
852,536672  	71,016779 
854,465488  	70,600320 
856,394304  	70,204849 
858,323120  	69,654177 
860,251936  	68,957270 
862,180752  	68,135694 
864,109568  	67,477851 
866,038384  	66,958260 
867,967200  	66,088329 
869,896016  	65,177731 
871,824832  	64,546152 
873,753648  	64,122874 
875,682464  	63,543072 
877,611280  	62,985768 
879,540096  	62,524248 
881,468912  	61,989639 
883,397728  	61,350832 
885,326544  	60,718392 
887,255360  	60,303437 
889,184176  	60,206967 
891,112992  	60,268139 
893,041808  	60,463217 
894,970624  	60,944082 
896,899440  	61,531085 
898,828256  	62,148794 
900,757072  	62,788261 
902,685888  	63,299534 
904,614704  	63,822247 
906,543520  	64,491156 
908,472336  	65,125037 
910,401152  	65,746838 
912,329968  	66,569784 
914,258784  	67,644397 
916,187600  	68,872869 
918,116416  	69,925870 
920,045232  	70,877261 
921,974048  	71,735005 
923,902864  	72,312818 
925,831680  	72,783372 
927,760496  	73,242880 
929,689312  	73,773165 
931,618128  	74,108558 
933,546944  	74,303983 
935,475760  	74,619263 
937,404576  	74,929469 
939,333392  	75,145060 
941,262208  	75,331932 
943,191024  	75,589227 
945,119840  	75,697211 
947,048656  	75,692083 
948,977472  	75,652116 
950,906288  	75,274658 
952,835104  	73,906532 
954,763920  	71,677948 
956,692736  	71,429192 
958,621552  	73,227014 
960,550368  	74,506790 
962,479184  	75,063742 
964,408000  	75,253362 
966,336816  	75,369691 
968,265632  	75,441578 
970,194448  	75,288439 
972,123264  	75,050368 
974,052080  	75,045884 
975,980896  	75,017155 
977,909712  	74,977159 
979,838528  	74,734102 
981,767344  	74,243352 
983,696160  	73,665339 
985,624976  	72,903153 
987,553792  	71,514763 
989,482608  	70,397408 
991,411424  	70,762567 
993,340240  	71,265877 
995,269056  	71,111875 
997,197872  	70,600410 
999,126688  	69,689687 
1001,055504  	68,906265 
1002,984320  	68,025766 
1004,913136  	66,875711 
1006,841952  	65,434126 
1008,770768  	63,598647 
1010,699584  	60,833586 
1012,628400  	57,403203 
1014,557216  	56,558149 
1016,486032  	63,815287 
1018,414848  	75,427799 
1020,343664  	82,355890 
1022,272480  	84,122889 
1024,201296  	83,895699 
1026,130112  	82,925702 
1028,058928  	81,664304 
1029,987744  	80,614629 
1031,916560  	79,854299 
1033,845376  	79,209473 
1035,774192  	78,693374 
1037,703008  	78,171954 
1039,631824  	77,331031 
1041,560640  	75,750521 
1043,489456  	73,415913 
1045,418272  	73,115457 
1047,347088  	77,062891 
1049,275904  	80,505922 
1051,204720  	81,157541 
1053,133536  	81,002216 
1055,062352  	80,716973 
1056,991168  	80,415596 
1058,919984  	80,155943 
1060,848800  	79,829118 
1062,777616  	79,575959 
1064,706432  	79,376634 
1066,635248  	79,191188 
1068,564064  	78,889925 
1070,492880  	78,522699 
1072,421696  	78,303825 
1074,350512  	78,163297 
1076,279328  	77,816830 
1078,208144  	77,419430 
1080,136960  	77,154197 
1082,065776  	76,987717 
1083,994592  	76,876544 
1085,923408  	76,633366 
1087,852224  	76,333916 
1089,781040  	76,040118 
1091,709856  	75,684277 
1093,638672  	75,263504 
1095,567488  	74,993529 
1097,496304  	74,784122 
1099,425120  	74,364875 
1101,353936  	73,894536 
1103,282752  	73,256743 
1105,211568  	72,263587 
1107,140384  	70,994157 
1109,069200  	69,862044 
1110,998016  	70,154591 
1112,926832  	72,591280 
1114,855648  	75,629599 
1116,784464  	77,503755 
1118,713280  	77,975952 
1120,642096  	77,791728 
1122,570912  	77,421645 
1124,499728  	77,057870 
1126,428544  	76,566767 
1128,357360  	76,062077 
1130,286176  	75,573565 
1132,214992  	74,997361 
1134,143808  	74,196376 
1136,072624  	73,409597 
1138,001440  	72,619045 
1139,930256  	71,738592 
1141,859072  	70,724806 
1143,787888  	69,652762 
1145,716704  	68,213412 
1147,645520  	67,101307 
1149,574336  	69,053401 
1151,503152  	72,973365 
1153,431968  	74,844102 
1155,360784  	74,711220 
1157,289600  	73,809462 
1159,218416  	72,710190 
1161,147232  	71,457278 
1163,076048  	70,353148 
1165,004864  	70,063387 
1166,933680  	71,120539 
1168,862496  	72,937576 
1170,791312  	74,666710 
1172,720128  	75,443239 
1174,648944  	75,409271 
1176,577760  	75,116253 
1178,506576  	74,731697 
1180,435392  	74,159331 
1182,364208  	73,709375 
1184,293024  	73,401010 
1186,221840  	72,910868 
1188,150656  	72,347650 
1190,079472  	71,965290 
1192,008288  	71,520327 
1193,937104  	71,065520 
1195,865920  	70,753039 
1197,794736  	70,585241 
1199,723552  	70,564184 
1201,652368  	70,728471 
1203,581184  	70,677176 
1205,510000  	70,425878 
1207,438816  	70,209760 
1209,367632  	69,985082 
1211,296448  	69,584699 
1213,225264  	69,253703 
1215,154080  	68,945945 
1217,082896  	68,527580 
1219,011712  	68,191221 
1220,940528  	68,045216 
1222,869344  	67,760902 
1224,798160  	67,352123 
1226,726976  	66,912502 
1228,655792  	66,540448 
1230,584608  	66,047177 
1232,513424  	65,653754 
1234,442240  	65,157326 
1236,371056  	64,490859 
1238,299872  	63,722385 
1240,228688  	63,115314 
1242,157504  	62,369452 
1244,086320  	61,651561 
1246,015136  	61,109384 
1247,943952  	60,559164 
1249,872768  	60,014084 
1251,801584  	59,720769 
1253,730400  	59,783343 
1255,659216  	60,148718 
1257,588032  	60,332398 
1259,516848  	60,169896 
1261,445664  	59,863788 
1263,374480  	59,379970 
1265,303296  	59,234772 
1267,232112  	59,898875 
1269,160928  	60,884292 
1271,089744  	62,446936 
1273,018560  	64,854472 
1274,947376  	67,687498 
1276,876192  	70,083316 
1278,805008  	71,733698 
1280,733824  	72,292963 
1282,662640  	72,002524 
1284,591456  	71,097226 
1286,520272  	70,043184 
1288,449088  	69,014674 
1290,377904  	67,896469 
1292,306720  	66,475770 
1294,235536  	66,177716 
1296,164352  	67,704258 
1298,093168  	69,994699 
1300,021984  	71,512262 
1301,950800  	72,368678 
1303,879616  	73,679822 
1305,808432  	75,817602 
1307,737248  	77,997981 
1309,666064  	80,029126 
1311,594880  	81,179650 
1313,523696  	82,097380 
1315,452512  	83,005285 
1317,381328  	83,071951 
1319,310144  	83,171241 
1321,238960  	84,053769 
1323,167776  	84,524645 
1325,096592  	84,609990 
1327,025408  	84,362816 
1328,954224  	84,025883 
1330,883040  	83,768217 
1332,811856  	83,538509 
1334,740672  	82,653761 
1336,669488  	80,891891 
1338,598304  	78,595480 
1340,527120  	79,073196 
1342,455936  	81,769029 
1344,384752  	82,652010 
1346,313568  	82,523945 
1348,242384  	82,167135 
1350,171200  	81,932316 
1352,100016  	81,902911 
1354,028832  	81,411033 
1355,957648  	81,161438 
1357,886464  	81,017735 
1359,815280  	79,863222 
1361,744096  	77,430393 
1363,672912  	77,673307 
1365,601728  	79,807046 
1367,530544  	79,349780 
1369,459360  	78,690845 
1371,388176  	78,431202 
1373,316992  	76,335521 
1375,245808  	75,975114 
1377,174624  	77,128453 
1379,103440  	77,130295 
1381,032256  	77,244986 
1382,961072  	76,982355 
1384,889888  	75,543201 
1386,818704  	72,999838 
1388,747520  	72,984047 
1390,676336  	73,126570 
1392,605152  	71,037682 
1394,533968  	67,494005 
1396,462784  	65,762604 
1398,391600  	64,976253 
1400,320416  	65,504776 
1402,249232  	66,178088 
1404,178048  	65,840104 
1406,106864  	68,106837 
1408,035680  	71,519220 
1409,964496  	73,984764 
1411,893312  	76,242581 
1413,822128  	77,782639 
1415,750944  	76,433096 
1417,679760  	73,311892 
1419,608576  	72,953494 
1421,537392  	74,898354 
1423,466208  	73,567909 
1425,395024  	72,433377 
1427,323840  	70,614369 
1429,252656  	68,632838 
1431,181472  	72,250830 
1433,110288  	76,720475 
1435,039104  	77,138671 
1436,967920  	76,822329 
1438,896736  	79,726534 
1440,825552  	80,730860 
1442,754368  	80,064464 
1444,683184  	78,814110 
1446,612000  	76,926115 
1448,540816  	76,322839 
1450,469632  	76,983368 
1452,398448  	75,878837 
1454,327264  	73,278350 
1456,256080  	68,167301 
1458,184896  	67,075070 
1460,113712  	70,332256 
1462,042528  	70,478616 
1463,971344  	67,232036 
1465,900160  	66,675543 
1467,828976  	70,553704 
1469,757792  	74,111355 
1471,686608  	73,556431 
1473,615424  	74,757569 
1475,544240  	77,635385 
1477,473056  	80,153375 
1479,401872  	81,446554 
1481,330688  	81,068746 
1483,259504  	81,803986 
1485,188320  	80,890268 
1487,117136  	77,642423 
1489,045952  	74,440250 
1490,974768  	76,429399 
1492,903584  	80,332327 
1494,832400  	79,656795 
1496,761216  	77,161044 
1498,690032  	77,772569 
1500,618848  	79,151594 
1502,547664  	79,406103 
1504,476480  	76,826193 
1506,405296  	68,211861 
1508,334112  	68,110097 
1510,262928  	73,554329 
1512,191744  	76,150821 
1514,120560  	75,907643 
1516,049376  	72,713485 
1517,978192  	72,471196 
1519,907008  	72,205134 
1521,835824  	70,340787 
1523,764640  	72,746599 
1525,693456  	73,004911 
1527,622272  	73,971949 
1529,551088  	75,763110 
1531,479904  	74,820779 
1533,408720  	72,375881 
1535,337536  	74,151451 
1537,266352  	73,513632 
1539,195168  	67,964562 
1541,123984  	66,095985 
1543,052800  	68,436153 
1544,981616  	70,397963 
1546,910432  	73,659139 
1548,839248  	72,689610 
1550,768064  	71,377431 
1552,696880  	71,363730 
1554,625696  	69,129615 
1556,554512  	66,653262 
1558,483328  	60,139051 
1560,412144  	63,173944 
1562,340960  	68,529969 
1564,269776  	71,114631 
1566,198592  	72,592928 
1568,127408  	71,394484 
1570,056224  	69,734598 
1571,985040  	70,979038 
1573,913856  	69,600284 
1575,842672  	66,151646 
1577,771488  	65,146155 
1579,700304  	64,768740 
1581,629120  	64,015786 
1583,557936  	68,810040 
1585,486752  	76,891099 
1587,415568  	80,890166 
1589,344384  	80,662642 
1591,273200  	79,560437 
1593,202016  	78,561705 
1595,130832  	77,667013 
1597,059648  	77,648597 
1598,988464  	77,646690 
1600,917280  	77,076465 
1602,846096  	76,436256 
1604,774912  	76,184019 
1606,703728  	75,423588 
1608,632544  	74,612958 
1610,561360  	74,843675 
1612,490176  	75,063966 
1614,418992  	73,780883 
1616,347808  	71,657110 
1618,276624  	72,694010 
1620,205440  	73,295222 
1622,134256  	71,457181 
1624,063072  	70,824253 
1625,991888  	71,584863 
1627,920704  	71,105408 
1629,849520  	71,692228 
1631,778336  	71,383724 
1633,707152  	68,950911 
1635,635968  	65,259786 
1637,564784  	66,736249 
1639,493600  	68,652784 
1641,422416  	68,686353 
1643,351232  	67,360277 
1645,280048  	64,162699 
1647,208864  	61,256463 
1649,137680  	63,281185 
1651,066496  	62,266878 
1652,995312  	57,746619 
1654,924128  	60,752917 
1656,852944  	63,094683 
1658,781760  	62,986306 
1660,710576  	61,297510 
1662,639392  	59,602743 
1664,568208  	60,097947 
1666,497024  	59,051042 
1668,425840  	56,252272 
1670,354656  	55,764974 
1672,283472  	57,082258 
1674,212288  	56,843821 
1676,141104  	58,118069 
1678,069920  	59,352513 
1679,998736  	58,473285 
1681,927552  	57,313727 
1683,856368  	55,569681 
1685,785184  	60,657954 
1687,714000  	62,718108 
1689,642816  	63,914912 
1691,571632  	66,292839 
1693,500448  	66,662537 
1695,429264  	64,941315 
1697,358080  	65,250092 
1699,286896  	65,673370 
1701,215712  	69,632386 
1703,144528  	73,099465 
1705,073344  	74,093091 
1707,002160  	77,386727 
1708,930976  	80,816650 
1710,859792  	82,353033 
1712,788608  	82,212992 
1714,717424  	79,532903 
1716,646240  	78,055603 
1718,575056  	80,503814 
1720,503872  	85,147843 
1722,432688  	85,977182 
1724,361504  	86,406832 
1726,290320  	87,284349 
1728,219136  	86,239662 
1730,147952  	83,889443 
1732,076768  	82,445772 
1734,005584  	80,552037 
1735,934400  	84,234991 
1737,863216  	85,552571 
1739,792032  	84,866534 
1741,720848  	84,927936 
1743,649664  	84,047563 
1745,578480  	83,956223 
1747,507296  	82,432865 
1749,436112  	81,162162 
1751,364928  	82,702591 
1753,293744  	85,974459 
1755,222560  	86,684615 
1757,151376  	85,573825 
1759,080192  	86,319365 
1761,009008  	85,621857 
1762,937824  	85,996321 
1764,866640  	87,404795 
1766,795456  	86,293660 
1768,724272  	84,644596 
1770,653088  	83,500070 
1772,581904  	82,497362 
1774,510720  	84,661337 
1776,439536  	85,880719 
1778,368352  	85,973436 
1780,297168  	84,888540 
1782,225984  	85,686055 
1784,154800  	85,891990 
1786,083616  	86,109597 
1788,012432  	86,498725 
1789,941248  	84,443729 
1791,870064  	82,101518 
1793,798880  	83,451606 
1795,727696  	84,424553 
1797,656512  	84,727719 
1799,585328  	84,196762 
1801,514144  	83,570888 
1803,442960  	85,087372 
1805,371776  	86,309538 
1807,300592  	85,867557 
1809,229408  	85,033089 
1811,158224  	84,544183 
1813,087040  	85,513566 
1815,015856  	86,142114 
1816,944672  	85,555917 
1818,873488  	85,498111 
1820,802304  	85,427068 
1822,731120  	84,507455 
1824,659936  	83,322167 
1826,588752  	83,944915 
1828,517568  	83,413808 
1830,446384  	83,023796 
1832,375200  	85,520176 
1834,304016  	86,155090 
1836,232832  	85,761309 
1838,161648  	85,807102 
1840,090464  	86,073551 
1842,019280  	84,480904 
1843,948096  	82,506562 
1845,876912  	83,243525 
1847,805728  	84,359360 
1849,734544  	85,395112 
1851,663360  	86,216249 
1853,592176  	85,967006 
1855,520992  	85,872093 
1857,449808  	85,608184 
1859,378624  	85,531210 
1861,307440  	85,568593 
1863,236256  	85,661044 
1865,165072  	84,624461 
1867,093888  	82,427834 
1869,022704  	81,136346 
1870,951520  	83,494020 
1872,880336  	85,362538 
1874,809152  	85,762415 
1876,737968  	85,434918 
1878,666784  	85,449887 
1880,595600  	85,504745 
1882,524416  	85,404863 
1884,453232  	85,353289 
1886,382048  	85,606420 
1888,310864  	84,443788 
1890,239680  	83,720061 
1892,168496  	84,368320 
1894,097312  	84,171240 
1896,026128  	84,375015 
1897,954944  	85,300437 
1899,883760  	85,278387 
1901,812576  	85,178429 
1903,741392  	84,846740 
1905,670208  	84,344122 
1907,599024  	83,486521 
1909,527840  	83,254517 
1911,456656  	84,376197 
1913,385472  	85,193985 
1915,314288  	85,018813 
1917,243104  	84,112019 
1919,171920  	83,518456 
1921,100736  	83,671426 
1923,029552  	83,038228 
1924,958368  	84,460743 
1926,887184  	85,015510 
1928,816000  	84,929946 
1930,744816  	84,480860 
1932,673632  	84,395400 
1934,602448  	84,696054 
1936,531264  	84,577157 
1938,460080  	84,125950 
1940,388896  	82,959084 
1942,317712  	81,857589 
1944,246528  	83,702985 
1946,175344  	84,846145 
1948,104160  	84,830321 
1950,032976  	84,582816 
1951,961792  	84,812743 
1953,890608  	84,740352 
1955,819424  	84,238281 
1957,748240  	83,654981 
1959,677056  	84,587258 
1961,605872  	84,325867 
1963,534688  	83,353986 
1965,463504  	82,581707 
1967,392320  	82,857137 
1969,321136  	83,263901 
1971,249952  	84,105191 
1973,178768  	83,595360 
1975,107584  	83,660758 
1977,036400  	84,273677 
1978,965216  	84,773737 
1980,894032  	84,372801 
1982,822848  	84,811333 
1984,751664  	86,236157 
1986,680480  	86,342833 
1988,609296  	83,924117 
1990,538112  	83,286207 
1992,466928  	83,281421 
1994,395744  	84,760822 
1996,324560  	85,577751 
1998,253376  	85,534325 
2000,182192  	85,652750 
2002,111008  	84,416608 
2004,039824  	83,559799 
2005,968640  	84,931663 
2007,897456  	85,222508 
2009,826272  	85,184318 
2011,755088  	85,634174 
2013,683904  	86,179249 
2015,612720  	85,327250 
2017,541536  	84,342790 
2019,470352  	84,036591 
2021,399168  	85,276411 
2023,327984  	86,190171 
2025,256800  	85,527015 
2027,185616  	82,876143 
2029,114432  	83,890567 
2031,043248  	84,379353 
2032,972064  	83,365974 
2034,900880  	83,888025 
2036,829696  	83,960489 
2038,758512  	83,204307 
2040,687328  	84,104587 
2042,616144  	85,528359 
2044,544960  	85,337143 
2046,473776  	84,312678 
2048,402592  	84,322777 
2050,331408  	83,868789 
2052,260224  	83,861841 
2054,189040  	83,688498 
2056,117856  	83,545026 
2058,046672  	83,780920 
2059,975488  	83,999423 
2061,904304  	84,188250 
2063,833120  	83,488206 
2065,761936  	83,065459 
2067,690752  	83,633064 
2069,619568  	83,995546 
2071,548384  	84,363976 
2073,477200  	83,807934 
2075,406016  	83,761849 
2077,334832  	84,119764 
2079,263648  	84,384269 
2081,192464  	84,478285 
2083,121280  	84,224082 
2085,050096  	84,065043 
2086,978912  	83,468211 
2088,907728  	83,439591 
2090,836544  	84,052058 
2092,765360  	84,200932 
2094,694176  	83,931370 
2096,622992  	83,711989 
2098,551808  	84,195943 
2100,480624  	84,039854 
2102,409440  	83,858407 
2104,338256  	83,829970 
2106,267072  	84,014184 
2108,195888  	84,270864 
2110,124704  	84,432823 
2112,053520  	84,465930 
2113,982336  	84,451956 
2115,911152  	84,246507 
2117,839968  	84,286469 
2119,768784  	84,280101 
2121,697600  	84,380656 
2123,626416  	84,348678 
2125,555232  	84,423088 
2127,484048  	83,954413 
2129,412864  	83,866960 
2131,341680  	84,620654 
2133,270496  	84,404563 
2135,199312  	84,026785 
2137,128128  	84,075902 
2139,056944  	84,604546 
2140,985760  	84,748763 
2142,914576  	83,461392 
2144,843392  	84,030087 
2146,772208  	85,256863 
2148,701024  	85,667534 
2150,629840  	84,983895 
2152,558656  	84,988806 
2154,487472  	86,221144 
2156,416288  	87,723543 
2158,345104  	87,208021 
2160,273920  	86,326481 
2162,202736  	85,466914 
2164,131552  	84,717807 
2166,060368  	84,629259 
2167,989184  	84,206051 
2169,918000  	83,166955 
2171,846816  	84,446472 
2173,775632  	85,309713 
2175,704448  	84,069630 
2177,633264  	83,634172 
2179,562080  	85,450028 
2181,490896  	85,986648 
2183,419712  	85,381128 
2185,348528  	84,069607 
2187,277344  	83,675595 
2189,206160  	84,471473 
2191,134976  	83,859060 
2193,063792  	83,473485 
2194,992608  	84,036195 
2196,921424  	84,055647 
2198,850240  	83,933083 
2200,779056  	83,826544 
2202,707872  	83,640211 
2204,636688  	84,152923 
2206,565504  	84,857691 
2208,494320  	84,912827 
2210,423136  	84,020626 
2212,351952  	83,479548 
2214,280768  	83,584963 
2216,209584  	83,859521 
2218,138400  	84,391496 
2220,067216  	84,068014 
2221,996032  	83,703947 
2223,924848  	83,749685 
2225,853664  	83,321444 
2227,782480  	83,389301 
2229,711296  	83,891678 
2231,640112  	83,770481 
2233,568928  	83,447156 
2235,497744  	83,797844 
2237,426560  	83,977583 
2239,355376  	83,311170 
2241,284192  	82,825280 
2243,213008  	82,587791 
2245,141824  	82,739904 
2247,070640  	83,169492 
2248,999456  	83,172095 
2250,928272  	82,755057 
2252,857088  	82,430736 
2254,785904  	82,608968 
2256,714720  	82,924334 
2258,643536  	82,610459 
2260,572352  	82,351462 
2262,501168  	82,674036 
2264,429984  	83,069201 
2266,358800  	82,988866 
2268,287616  	82,778883 
2270,216432  	82,759714 
2272,145248  	82,883435 
2274,074064  	82,813035 
2276,002880  	82,871522 
2277,931696  	82,840526 
2279,860512  	82,728726 
2281,789328  	82,505075 
2283,718144  	82,172870 
2285,646960  	82,220880 
2287,575776  	82,268370 
2289,504592  	81,815764 
2291,433408  	81,561627 
2293,362224  	81,561773 
2295,291040  	81,428920 
2297,219856  	81,216052 
2299,148672  	80,904606 
2301,077488  	80,733231 
2303,006304  	80,499248 
2304,935120  	79,842576 
2306,863936  	79,472175 
2308,792752  	79,450270 
2310,721568  	79,075086 
2312,650384  	79,118744 
2314,579200  	79,581592 
2316,508016  	79,478133 
2318,436832  	79,180840 
2320,365648  	79,254302 
2322,294464  	79,471201 
2324,223280  	79,636071 
2326,152096  	80,187127 
2328,080912  	80,497855 
2330,009728  	80,442339 
2331,938544  	81,053841 
2333,867360  	81,729635 
2335,796176  	81,946869 
2337,724992  	82,436794 
2339,653808  	82,110424 
2341,582624  	81,719499 
2343,511440  	81,594118 
2345,440256  	81,043034 
2347,369072  	80,152006 
2349,297888  	79,392591 
2351,226704  	79,711068 
2353,155520  	80,769693 
2355,084336  	81,116103 
2357,013152  	81,204830 
2358,941968  	81,426906 
2360,870784  	82,058360 
2362,799600  	82,198587 
2364,728416  	81,670075 
2366,657232  	80,848937 
2368,586048  	80,485252 
2370,514864  	80,501871 
2372,443680  	80,128975 
2374,372496  	79,623467 
2376,301312  	79,222841 
2378,230128  	78,932780 
2380,158944  	79,126622 
2382,087760  	79,716993 
2384,016576  	79,992873 
2385,945392  	80,149362 
2387,874208  	80,591278 
2389,803024  	80,898348 
2391,731840  	80,889923 
2393,660656  	80,742287 
2395,589472  	80,632800 
2397,518288  	80,630117 
2399,447104  	80,700549 
2401,375920  	80,671059 
2403,304736  	80,748738 
2405,233552  	80,624656 
2407,162368  	80,329482 
2409,091184  	80,263344 
2411,020000  	80,424940 
2412,948816  	80,331341 
2414,877632  	80,007887 
2416,806448  	79,958564 
2418,735264  	80,205345 
2420,664080  	80,246915 
2422,592896  	80,179600 
2424,521712  	80,086247 
2426,450528  	80,075271 
2428,379344  	80,118549 
2430,308160  	80,150112 
2432,236976  	80,021566 
2434,165792  	79,844633 
2436,094608  	79,807144 
2438,023424  	79,701418 
2439,952240  	79,786013 
2441,881056  	79,860056 
2443,809872  	79,801985 
2445,738688  	79,570637 
2447,667504  	79,237883 
2449,596320  	79,150912 
2451,525136  	79,442037 
2453,453952  	79,657725 
2455,382768  	79,531681 
2457,311584  	79,608688 
2459,240400  	79,637208 
2461,169216  	79,552998 
2463,098032  	79,282770 
2465,026848  	79,056396 
2466,955664  	79,172689 
2468,884480  	79,186360 
2470,813296  	78,926111 
2472,742112  	78,926577 
2474,670928  	79,074967 
2476,599744  	78,952519 
2478,528560  	78,518266 
2480,457376  	78,277583 
2482,386192  	78,407714 
2484,315008  	78,450891 
2486,243824  	78,247380 
2488,172640  	78,212049 
2490,101456  	78,226445 
2492,030272  	78,162594 
2493,959088  	78,048752 
2495,887904  	77,818317 
2497,816720  	77,602647 
2499,745536  	77,593815 
2501,674352  	77,505479 
2503,603168  	77,232248 
2505,531984  	77,132606 
2507,460800  	77,287684 
2509,389616  	77,248379 
2511,318432  	77,264781 
2513,247248  	77,230480 
2515,176064  	77,038283 
2517,104880  	76,945073 
2519,033696  	77,135998 
2520,962512  	77,339451 
2522,891328  	77,482257 
2524,820144  	77,455542 
2526,748960  	77,396963 
2528,677776  	77,346527 
2530,606592  	77,257271 
2532,535408  	77,171695 
2534,464224  	77,258592 
2536,393040  	77,329149 
2538,321856  	77,378897 
2540,250672  	77,262174 
2542,179488  	77,099255 
2544,108304  	77,150711 
2546,037120  	77,220164 
2547,965936  	77,192151 
2549,894752  	77,267072 
2551,823568  	77,515999 
2553,752384  	77,593768 
2555,681200  	77,578103 
2557,610016  	77,567390 
2559,538832  	77,632243 
2561,467648  	77,679260 
2563,396464  	77,727731 
2565,325280  	77,915559 
2567,254096  	78,043119 
2569,182912  	78,194121 
2571,111728  	78,165102 
2573,040544  	78,132744 
2574,969360  	78,193814 
2576,898176  	78,199396 
2578,826992  	78,154286 
2580,755808  	77,959411 
2582,684624  	77,769844 
2584,613440  	77,795024 
2586,542256  	77,916950 
2588,471072  	77,789189 
2590,399888  	77,511473 
2592,328704  	77,415036 
2594,257520  	77,425102 
2596,186336  	77,259266 
2598,115152  	77,238414 
2600,043968  	77,284871 
2601,972784  	77,089731 
2603,901600  	77,093464 
2605,830416  	77,102572 
2607,759232  	76,993535 
2609,688048  	76,936974 
2611,616864  	76,935913 
2613,545680  	76,796032 
2615,474496  	76,801117 
2617,403312  	76,829646 
2619,332128  	76,627725 
2621,260944  	76,521080 
2623,189760  	76,482460 
2625,118576  	76,322303 
2627,047392  	76,107231 
2628,976208  	76,034818 
2630,905024  	75,948754 
2632,833840  	75,956807 
2634,762656  	75,845326 
2636,691472  	75,585554 
2638,620288  	75,460196 
2640,549104  	75,463374 
2642,477920  	75,522847 
2644,406736  	75,549757 
2646,335552  	75,629975 
2648,264368  	75,744064 
2650,193184  	75,903631 
2652,122000  	76,092512 
2654,050816  	76,232548 
2655,979632  	76,422109 
2657,908448  	76,664046 
2659,837264  	76,833953 
2661,766080  	76,876002 
2663,694896  	76,877239 
2665,623712  	76,880097 
2667,552528  	76,987538 
2669,481344  	77,079121 
2671,410160  	77,075362 
2673,338976  	77,124403 
2675,267792  	77,232971 
2677,196608  	77,273581 
2679,125424  	77,337391 
2681,054240  	77,360967 
2682,983056  	77,284443 
2684,911872  	77,281338 
2686,840688  	77,344185 
2688,769504  	77,511026 
2690,698320  	77,695159 
2692,627136  	77,823932 
2694,555952  	77,994238 
2696,484768  	78,190115 
2698,413584  	78,226866 
2700,342400  	78,205608 
2702,271216  	78,246588 
2704,200032  	78,230492 
2706,128848  	78,353432 
2708,057664  	78,436248 
2709,986480  	78,346680 
2711,915296  	78,247156 
2713,844112  	78,192004 
2715,772928  	78,059893 
2717,701744  	77,887958 
2719,630560  	77,784116 
2721,559376  	77,716991 
2723,488192  	77,777257 
2725,417008  	77,764162 
2727,345824  	77,702619 
2729,274640  	77,767043 
2731,203456  	77,878787 
2733,132272  	77,776407 
2735,061088  	77,756962 
2736,989904  	77,800036 
2738,918720  	77,779546 
2740,847536  	77,834262 
2742,776352  	77,941161 
2744,705168  	77,955481 
2746,633984  	77,866800 
2748,562800  	77,694754 
2750,491616  	77,559816 
2752,420432  	77,524979 
2754,349248  	77,480455 
2756,278064  	77,381364 
2758,206880  	77,247257 
2760,135696  	77,241194 
2762,064512  	77,310100 
2763,993328  	77,225524 
2765,922144  	77,110904 
2767,850960  	76,941482 
2769,779776  	76,917000 
2771,708592  	76,980872 
2773,637408  	76,854463 
2775,566224  	76,692497 
2777,495040  	76,598652 
2779,423856  	76,457530 
2781,352672  	76,388855 
2783,281488  	76,423887 
2785,210304  	76,353819 
2787,139120  	76,254786 
2789,067936  	76,245953 
2790,996752  	76,186122 
2792,925568  	75,983334 
2794,854384  	75,963804 
2796,783200  	75,947168 
2798,712016  	75,875407 
2800,640832  	75,674111 
2802,569648  	75,549035 
2804,498464  	75,496485 
2806,427280  	75,441833 
2808,356096  	75,480124 
2810,284912  	75,404277 
2812,213728  	75,321299 
2814,142544  	75,323947 
2816,071360  	75,379443 
2818,000176  	75,452507 
2819,928992  	75,644209 
2821,857808  	75,911088 
2823,786624  	76,115696 
2825,715440  	76,290881 
2827,644256  	76,339425 
2829,573072  	76,427349 
2831,501888  	76,470305 
2833,430704  	76,395089 
2835,359520  	76,478738 
2837,288336  	76,538763 
2839,217152  	76,499227 
2841,145968  	76,386853 
2843,074784  	76,421700 
2845,003600  	76,343183 
2846,932416  	76,213176 
2848,861232  	76,088245 
2850,790048  	75,994713 
2852,718864  	75,916514 
2854,647680  	75,781978 
2856,576496  	75,750252 
2858,505312  	75,766415 
2860,434128  	75,618291 
2862,362944  	75,549222 
2864,291760  	75,565249 
2866,220576  	75,414073 
2868,149392  	75,277065 
2870,078208  	75,271451 
2872,007024  	75,361529 
2873,935840  	75,399147 
2875,864656  	75,261690 
2877,793472  	75,241624 
2879,722288  	75,395786 
2881,651104  	75,492301 
2883,579920  	75,476564 
2885,508736  	75,570792 
2887,437552  	75,696608 
2889,366368  	75,916791 
2891,295184  	75,969733 
2893,224000  	75,905591 
2895,152816  	75,882332 
2897,081632  	76,087788 
2899,010448  	76,287547 
2900,939264  	76,326828 
2902,868080  	76,366684 
2904,796896  	76,414306 
2906,725712  	76,437835 
2908,654528  	76,517514 
2910,583344  	76,637489 
2912,512160  	76,737093 
2914,440976  	76,815866 
2916,369792  	76,890454 
2918,298608  	76,832895 
2920,227424  	76,855482 
2922,156240  	76,816786 
2924,085056  	76,801144 
2926,013872  	76,928399 
2927,942688  	76,908684 
2929,871504  	76,829966 
2931,800320  	76,857552 
2933,729136  	76,792235 
2935,657952  	76,791183 
2937,586768  	76,785148 
2939,515584  	76,752118 
2941,444400  	76,776071 
2943,373216  	76,660711 
2945,302032  	76,665103 
2947,230848  	76,685599 
2949,159664  	76,487252 
2951,088480  	76,378509 
2953,017296  	76,408349 
2954,946112  	76,433846 
2956,874928  	76,344089 
2958,803744  	76,302489 
2960,732560  	76,206656 
2962,661376  	76,222198 
2964,590192  	76,221556 
2966,519008  	76,215486 
2968,447824  	76,271140 
2970,376640  	76,206499 
2972,305456  	76,108971 
2974,234272  	75,945765 
2976,163088  	75,963982 
2978,091904  	76,170106 
2980,020720  	76,319838 
2981,949536  	76,352566 
2983,878352  	76,286041 
2985,807168  	76,323953 
2987,735984  	76,504708 
2989,664800  	76,612741 
2991,593616  	76,627472 
2993,522432  	76,596222 
2995,451248  	76,579131 
2997,380064  	76,542431 
2999,308880  	76,683028 
3001,237696  	77,027963 
3003,166512  	77,002741 
3005,095328  	76,908415 
3007,024144  	76,919798 
3008,952960  	76,898431 
3010,881776  	76,999444 
3012,810592  	77,159327 
3014,739408  	77,330047 
3016,668224  	77,502074 
3018,597040  	77,674449 
3020,525856  	77,812303 
3022,454672  	77,711007 
3024,383488  	77,657002 
3026,312304  	77,887751 
3028,241120  	77,896105 
3030,169936  	77,656054 
3032,098752  	77,722526 
3034,027568  	78,091704 
3035,956384  	78,211716 
3037,885200  	78,313616 
3039,814016  	78,504199 
3041,742832  	78,558166 
3043,671648  	78,463214 
3045,600464  	78,526428 
3047,529280  	78,420925 
3049,458096  	78,271162 
3051,386912  	78,358101 
3053,315728  	78,434143 
3055,244544  	78,210895 
3057,173360  	77,913619 
3059,102176  	77,671213 
3061,030992  	77,582027 
3062,959808  	77,652633 
3064,888624  	77,938573 
3066,817440  	78,271621 
3068,746256  	78,339359 
3070,675072  	78,325176 
3072,603888  	78,365973 
3074,532704  	78,521163 
3076,461520  	78,628931 
3078,390336  	78,558073 
3080,319152  	78,524269 
3082,247968  	78,774870 
3084,176784  	78,927518 
3086,105600  	78,968106 
3088,034416  	78,975269 
3089,963232  	79,112587 
3091,892048  	79,287142 
3093,820864  	79,327940 
3095,749680  	79,411363 
3097,678496  	79,697930 
3099,607312  	79,866373 
3101,536128  	79,993938 
3103,464944  	80,204453 
3105,393760  	80,342968 
3107,322576  	80,425562 
3109,251392  	80,527912 
3111,180208  	80,600940 
3113,109024  	80,642422 
3115,037840  	80,685607 
3116,966656  	80,758332 
3118,895472  	80,912045 
3120,824288  	81,121245 
3122,753104  	81,226852 
3124,681920  	81,379007 
3126,610736  	81,616472 
3128,539552  	81,842890 
3130,468368  	81,927974 
3132,397184  	81,847567 
3134,326000  	81,984351 
3136,254816  	82,103836 
3138,183632  	82,142136 
3140,112448  	82,271137 
3142,041264  	82,356637 
3143,970080  	82,365377 
3145,898896  	82,530152 
3147,827712  	82,647081 
3149,756528  	82,683302 
3151,685344  	82,727388 
3153,614160  	82,771499 
3155,542976  	82,759635 
3157,471792  	82,897736 
3159,400608  	83,066074 
3161,329424  	83,143387 
3163,258240  	83,180302 
3165,187056  	83,061471 
3167,115872  	83,049253 
3169,044688  	83,258411 
3170,973504  	83,517205 
3172,902320  	83,509508 
3174,831136  	83,589589 
3176,759952  	83,581116 
3178,688768  	83,531166 
3180,617584  	83,839929 
3182,546400  	84,057847 
3184,475216  	84,027782 
3186,404032  	84,046461 
3188,332848  	83,999795 
3190,261664  	83,930125 
3192,190480  	84,088441 
3194,119296  	84,331309 
3196,048112  	84,342254 
3197,976928  	84,348278 
3199,905744  	84,362282 
3201,834560  	84,427832 
3203,763376  	84,644471 
3205,692192  	84,686306 
3207,621008  	84,623497 
3209,549824  	84,613618 
3211,478640  	84,652275 
3213,407456  	84,828952 
3215,336272  	85,034593 
3217,265088  	85,148184 
3219,193904  	85,022304 
3221,122720  	85,040986 
3223,051536  	85,297628 
3224,980352  	85,418017 
3226,909168  	85,361655 
3228,837984  	85,315630 
3230,766800  	85,380769 
3232,695616  	85,484440 
3234,624432  	85,493426 
3236,553248  	85,491618 
3238,482064  	85,653331 
3240,410880  	85,792560 
3242,339696  	85,735194 
3244,268512  	85,556225 
3246,197328  	85,640214 
3248,126144  	85,955534 
3250,054960  	85,964983 
3251,983776  	85,935389 
3253,912592  	85,927835 
3255,841408  	85,805300 
3257,770224  	85,791618 
3259,699040  	85,958301 
3261,627856  	86,003203 
3263,556672  	86,141963 
3265,485488  	86,328537 
3267,414304  	86,242966 
3269,343120  	86,076378 
3271,271936  	86,237464 
3273,200752  	86,160239 
3275,129568  	86,022497 
3277,058384  	86,177096 
3278,987200  	86,304320 
3280,916016  	86,241593 
3282,844832  	86,151156 
3284,773648  	86,341267 
3286,702464  	86,540154 
3288,631280  	86,386735 
3290,560096  	86,327312 
3292,488912  	86,308546 
3294,417728  	86,322091 
3296,346544  	86,394673 
3298,275360  	86,392018 
3300,204176  	86,447970 
3302,132992  	86,383666 
3304,061808  	86,300159 
3305,990624  	86,387451 
3307,919440  	86,345462 
3309,848256  	86,271700 
3311,777072  	86,226829 
3313,705888  	86,328712 
3315,634704  	86,444572 
3317,563520  	86,379355 
3319,492336  	86,417259 
3321,421152  	86,401681 
3323,349968  	86,428962 
3325,278784  	86,473263 
3327,207600  	86,508062 
3329,136416  	86,754471 
3331,065232  	86,809284 
3332,994048  	86,709323 
3334,922864  	86,471612 
3336,851680  	86,312733 
3338,780496  	86,479744 
3340,709312  	86,588964 
3342,638128  	86,545614 
3344,566944  	86,632916 
3346,495760  	86,867786 
3348,424576  	86,870692 
3350,353392  	86,721712 
3352,282208  	86,808216 
3354,211024  	86,813249 
3356,139840  	86,764380 
3358,068656  	86,691840 
3359,997472  	86,722832 
3361,926288  	86,666460 
3363,855104  	86,592215 
3365,783920  	86,609652 
3367,712736  	86,598878 
3369,641552  	86,750009 
3371,570368  	86,908263 
3373,499184  	86,934297 
3375,428000  	86,767136 
3377,356816  	86,624934 
3379,285632  	86,726818 
3381,214448  	86,793515 
3383,143264  	86,612378 
3385,072080  	86,414500 
3387,000896  	86,624798 
3388,929712  	86,680838 
3390,858528  	86,439699 
3392,787344  	86,113828 
3394,716160  	86,181688 
3396,644976  	86,415406 
3398,573792  	86,459188 
3400,502608  	86,386814 
3402,431424  	86,368599 
3404,360240  	86,400825 
3406,289056  	86,317217 
3408,217872  	86,427121 
3410,146688  	86,449875 
3412,075504  	86,369633 
3414,004320  	86,491199 
3415,933136  	86,449701 
3417,861952  	86,137912 
3419,790768  	85,761796 
3421,719584  	85,664311 
3423,648400  	86,002098 
3425,577216  	86,220074 
3427,506032  	86,364925 
3429,434848  	86,479412 
3431,363664  	86,180782 
3433,292480  	86,233044 
3435,221296  	86,460435 
3437,150112  	86,223044 
3439,078928  	86,071770 
3441,007744  	85,988176 
3442,936560  	85,702293 
3444,865376  	85,405106 
3446,794192  	84,817062 
3448,723008  	85,146767 
3450,651824  	85,902992 
3452,580640  	85,900889 
3454,509456  	85,878160 
3456,438272  	85,944849 
3458,367088  	85,841765 
3460,295904  	85,730146 
3462,224720  	85,582212 
3464,153536  	85,611891 
3466,082352  	85,663280 
3468,011168  	85,774030 
3469,939984  	85,852021 
3471,868800  	85,862164 
3473,797616  	85,721023 
3475,726432  	85,671296 
3477,655248  	85,854492 
3479,584064  	85,461362 
3481,512880  	84,993809 
3483,441696  	85,314969 
3485,370512  	85,641550 
3487,299328  	85,368901 
3489,228144  	85,579061 
3491,156960  	85,790964 
3493,085776  	85,736484 
3495,014592  	85,614141 
3496,943408  	85,526746 
3498,872224  	85,514934 
3500,801040  	84,772264 
3502,729856  	83,896098 
3504,658672  	84,404291 
3506,587488  	85,282770 
3508,516304  	84,964504 
3510,445120  	84,831893 
3512,373936  	85,722404 
3514,302752  	86,147500 
3516,231568  	86,086473 
3518,160384  	85,754943 
3520,089200  	85,542683 
3522,018016  	84,691468 
3523,946832  	83,526759 
3525,875648  	83,660721 
3527,804464  	83,840141 
3529,733280  	84,553931 
3531,662096  	85,455437 
3533,590912  	85,927803 
3535,519728  	85,211807 
3537,448544  	84,894537 
3539,377360  	85,758438 
3541,306176  	85,601884 
3543,234992  	84,081512 
3545,163808  	82,271288 
3547,092624  	82,605128 
3549,021440  	84,422901 
3550,950256  	84,535092 
3552,879072  	83,701824 
3554,807888  	84,651784 
3556,736704  	85,516346 
3558,665520  	85,070576 
3560,594336  	84,259867 
3562,523152  	83,767981 
3564,451968  	81,652485 
3566,380784  	78,238292 
3568,309600  	79,561924 
3570,238416  	83,527780 
3572,167232  	85,109553 
3574,096048  	85,257337 
3576,024864  	85,012269 
3577,953680  	84,837868 
3579,882496  	84,698983 
3581,811312  	84,871496 
3583,740128  	84,176620 
3585,668944  	81,511206 
3587,597760  	79,266179 
3589,526576  	82,323465 
3591,455392  	84,198831 
3593,384208  	82,824520 
3595,313024  	82,013625 
3597,241840  	82,974715 
3599,170656  	83,190696 
3601,099472  	83,360809 
3603,028288  	84,422643 
3604,957104  	84,304490 
3606,885920  	82,134089 
3608,814736  	81,294833 
3610,743552  	82,029013 
3612,672368  	81,132913 
3614,601184  	80,760218 
3616,530000  	81,201535 
3618,458816  	80,212816 
3620,387632  	80,994678 
3622,316448  	83,512975 
3624,245264  	84,237281 
3626,174080  	82,240207 
3628,102896  	78,962837 
3630,031712  	79,252882 
3631,960528  	82,631294 
3633,889344  	83,818594 
3635,818160  	84,838888 
3637,746976  	85,113035 
3639,675792  	84,917781 
3641,604608  	84,526349 
3643,533424  	83,540197 
3645,462240  	81,425489 
3647,391056  	76,832876 
3649,319872  	74,824988 
3651,248688  	78,509616 
3653,177504  	82,820320 
3655,106320  	83,694316 
3657,035136  	83,549968 
3658,963952  	84,890308 
3660,892768  	85,402152 
3662,821584  	85,641211 
3664,750400  	85,317871 
3666,679216  	83,818589 
3668,608032  	80,836397 
3670,536848  	79,307334 
3672,465664  	80,545149 
3674,394480  	78,893504 
3676,323296  	77,862861 
3678,252112  	81,175198 
3680,180928  	83,501271 
3682,109744  	84,894071 
3684,038560  	84,796522 
3685,967376  	83,482516 
3687,896192  	80,889867 
3689,825008  	79,316486 
3691,753824  	81,561082 
3693,682640  	83,903233 
3695,611456  	84,688592 
3697,540272  	84,633717 
3699,469088  	84,062990 
3701,397904  	82,827970 
3703,326720  	83,368793 
3705,255536  	84,232225 
3707,184352  	83,284611 
3709,113168  	80,739359 
3711,041984  	78,380995 
3712,970800  	80,149429 
3714,899616  	82,962232 
3716,828432  	84,250029 
3718,757248  	83,487174 
3720,686064  	82,186439 
3722,614880  	80,669881 
3724,543696  	80,282132 
3726,472512  	80,743698 
3728,401328  	82,256342 
3730,330144  	82,441468 
3732,258960  	79,762244 
3734,187776  	75,997335 
3736,116592  	75,500712 
3738,045408  	79,007756 
3739,974224  	80,344006 
3741,903040  	79,641320 
3743,831856  	78,775018 
3745,760672  	78,123403 
3747,689488  	78,525500 
3749,618304  	77,213134 
3751,547120  	77,070140 
3753,475936  	80,150553 
3755,404752  	81,930202 
3757,333568  	81,735718 
3759,262384  	81,518794 
3761,191200  	83,107179 
3763,120016  	83,900989 
3765,048832  	82,828565 
3766,977648  	82,578763 
3768,906464  	82,751684 
3770,835280  	82,946263 
3772,764096  	84,556769 
3774,692912  	85,271058 
3776,621728  	84,791411 
3778,550544  	83,432869 
3780,479360  	83,241674 
3782,408176  	84,159067 
3784,336992  	83,660811 
3786,265808  	83,920084 
3788,194624  	84,845312 
3790,123440  	85,082488 
3792,052256  	85,136188 
3793,981072  	84,463579 
3795,909888  	82,908256 
3797,838704  	81,421511 
3799,767520  	80,763142 
3801,696336  	79,735281 
3803,625152  	81,321737 
3805,553968  	82,585243 
3807,482784  	82,638454 
3809,411600  	84,126258 
3811,340416  	84,769590 
3813,269232  	83,965262 
3815,198048  	82,161220 
3817,126864  	80,804527 
3819,055680  	80,348721 
3820,984496  	79,034302 
3822,913312  	80,779622 
3824,842128  	82,481509 
3826,770944  	82,387765 
3828,699760  	82,845451 
3830,628576  	82,932720 
3832,557392  	81,983137 
3834,486208  	81,359631 
3836,415024  	80,141647 
3838,343840  	78,492694 
3840,272656  	78,557311 
3842,201472  	80,643007 
3844,130288  	82,083680 
3846,059104  	83,380407 
3847,987920  	83,221825 
3849,916736  	81,111782 
3851,845552  	77,885650 
3853,774368  	76,306320 
3855,703184  	79,697689 
3857,632000  	81,850715 
3859,560816  	82,870861 
3861,489632  	81,678182 
3863,418448  	80,141126 
3865,347264  	80,345262 
3867,276080  	81,259290 
3869,204896  	79,925633 
3871,133712  	79,303318 
3873,062528  	80,676167 
3874,991344  	81,671203 
3876,920160  	83,362541 
3878,848976  	82,504921 
3880,777792  	80,494402 
3882,706608  	80,916065 
3884,635424  	81,135975 
3886,564240  	81,725467 
3888,493056  	83,118502 
3890,421872  	82,348058 
3892,350688  	81,503767 
3894,279504  	82,923731 
3896,208320  	83,443124 
3898,137136  	81,579184 
3900,065952  	79,438073 
3901,994768  	78,940295 
3903,923584  	79,408529 
3905,852400  	81,241974 
3907,781216  	83,728767 
3909,710032  	85,030435 
3911,638848  	85,118778 
3913,567664  	84,510454 
3915,496480  	82,915204 
3917,425296  	81,757985 
3919,354112  	82,396994 
3921,282928  	83,064521 
3923,211744  	82,612690 
3925,140560  	82,167897 
3927,069376  	83,383786 
3928,998192  	83,143366 
3930,927008  	81,686488 
3932,855824  	81,810114 
3934,784640  	83,780623 
3936,713456  	84,721240 
3938,642272  	84,257623 
3940,571088  	83,601744 
3942,499904  	82,572080 
3944,428720  	82,962418 
3946,357536  	83,293448 
3948,286352  	82,568470 
3950,215168  	83,010647 
3952,143984  	84,121572 
3954,072800  	84,686714 
3956,001616  	84,540652 
3957,930432  	84,572017 
3959,859248  	84,426119 
3961,788064  	83,922271 
3963,716880  	84,178066 
3965,645696  	84,723302 
3967,574512  	84,600640 
3969,503328  	84,403959 
3971,432144  	84,392708 
3973,360960  	84,162363 
3975,289776  	84,106203 
3977,218592  	84,525416 
3979,147408  	84,727104 
3981,076224  	84,580783 
3983,005040  	84,526446 
3984,933856  	84,710298 
3986,862672  	84,702352 
3988,791488  	84,533169 
3990,720304  	84,470363 
3992,649120  	84,749519 
3994,577936  	84,545565 
3996,506752  	84,500602 
3998,435568  	84,806632 
4000,364384  	84,820001 